#    s        x        y     Ue/Vinf    Dstar     Theta      Cf       H
   0.00000  1.00000  0.00147  0.91536  0.020057  0.007518  0.000193     2.668
   0.00539  0.99479  0.00284  0.91814  0.019225  0.007412  0.000229     2.594
   0.01427  0.98619  0.00507  0.92360  0.017851  0.007214  0.000297     2.474
   0.02415  0.97662  0.00751  0.93072  0.016427  0.006971  0.000381     2.356
   0.03497  0.96613  0.01014  0.93973  0.014989  0.006686  0.000485     2.242
   0.04663  0.95480  0.01293  0.95062  0.013596  0.006368  0.000609     2.135
   0.05900  0.94278  0.01583  0.96322  0.012294  0.006030  0.000751     2.039
   0.07190  0.93022  0.01879  0.97721  0.011112  0.005686  0.000910     1.954
   0.08519  0.91727  0.02177  0.99219  0.010064  0.005351  0.001081     1.881
   0.09875  0.90404  0.02475  1.00772  0.009152  0.005033  0.001259     1.819
   0.11248  0.89062  0.02769  1.02342  0.008367  0.004737  0.001442     1.766
   0.12634  0.87708  0.03058  1.03905  0.007690  0.004466  0.001624     1.722
   0.14026  0.86344  0.03341  1.05427  0.007113  0.004221  0.001804     1.685
   0.15423  0.84975  0.03618  1.06914  0.006612  0.003999  0.001980     1.653
   0.16824  0.83601  0.03889  1.08343  0.006179  0.003798  0.002151     1.627
   0.18226  0.82224  0.04152  1.09724  0.005800  0.003615  0.002317     1.604
   0.19629  0.80844  0.04408  1.11048  0.005467  0.003449  0.002477     1.585
   0.21032  0.79463  0.04656  1.12315  0.005173  0.003298  0.002631     1.569
   0.22436  0.78080  0.04897  1.13542  0.004908  0.003158  0.002781     1.554
   0.23840  0.76695  0.05130  1.14716  0.004671  0.003030  0.002925     1.542
   0.25244  0.75310  0.05356  1.15857  0.004454  0.002910  0.003067     1.531
   0.26647  0.73923  0.05575  1.16947  0.004258  0.002799  0.003201     1.521
   0.28050  0.72536  0.05785  1.18008  0.004077  0.002695  0.003334     1.513
   0.29453  0.71149  0.05988  1.19029  0.003911  0.002599  0.003461     1.505
   0.30855  0.69761  0.06183  1.20022  0.003757  0.002507  0.003586     1.499
   0.32256  0.68372  0.06370  1.20980  0.003614  0.002421  0.003706     1.493
   0.33657  0.66983  0.06549  1.21906  0.003481  0.002340  0.003823     1.488
   0.35057  0.65593  0.06720  1.22808  0.003357  0.002262  0.003936     1.484
   0.36457  0.64202  0.06882  1.23670  0.003241  0.002190  0.004043     1.480
   0.37858  0.62809  0.07037  1.24504  0.003134  0.002121  0.004146     1.478
   0.39261  0.61415  0.07184  1.25293  0.003034  0.002056  0.004240     1.476
   0.40667  0.60016  0.07322  1.26005  0.002947  0.001997  0.004318     1.475
   0.42078  0.58610  0.07454  1.26709  0.002862  0.001940  0.004394     1.476
   0.43492  0.57202  0.07580  1.27474  0.002773  0.001880  0.004483     1.475
   0.44908  0.55791  0.07700  1.28265  0.002685  0.001821  0.004577     1.474
   0.46324  0.54380  0.07813  1.29070  0.002597  0.001762  0.004674     1.473
   0.47738  0.52970  0.07919  1.29897  0.002509  0.001704  0.004777     1.473
   0.49151  0.51560  0.08019  1.30736  0.002423  0.001646  0.004883     1.472
   0.50561  0.50153  0.08111  1.31585  0.002339  0.001590  0.004993     1.471
   0.51969  0.48747  0.08196  1.32452  0.002256  0.001534  0.005106     1.471
   0.53375  0.47344  0.08274  1.33320  0.002174  0.001479  0.005221     1.470
   0.54777  0.45943  0.08343  1.34215  0.002094  0.001425  0.005344     1.469
   0.56176  0.44546  0.08405  1.35109  0.002015  0.001372  0.005467     1.469
   0.57572  0.43151  0.08458  1.36022  0.001938  0.001319  0.005596     1.469
   0.58964  0.41760  0.08503  1.36943  0.001862  0.001268  0.005728     1.469
   0.60351  0.40373  0.08540  1.37883  0.001787  0.001217  0.005866     1.468
   0.61735  0.38989  0.08567  1.38834  0.001714  0.001167  0.006008     1.468
   0.63114  0.37610  0.08585  1.39795  0.001642  0.001118  0.006155     1.468
   0.64489  0.36236  0.08594  1.40775  0.001571  0.001070  0.006309     1.468
   0.65858  0.34867  0.08592  1.41779  0.001501  0.001022  0.006471     1.469
   0.67222  0.33503  0.08581  1.42779  0.001433  0.000976  0.006634     1.469
   0.68579  0.32145  0.08559  1.43812  0.001366  0.000930  0.006810     1.469
   0.69931  0.30794  0.08526  1.44859  0.001300  0.000885  0.006993     1.470
   0.71276  0.29450  0.08483  1.45934  0.001235  0.000840  0.007188     1.470
   0.72614  0.28113  0.08428  1.47013  0.001171  0.000796  0.007390     1.471
   0.73943  0.26786  0.08361  1.48139  0.001107  0.000753  0.007612     1.471
   0.75264  0.25467  0.08282  1.49264  0.001045  0.000711  0.007842     1.471
   0.76575  0.24159  0.08191  1.50428  0.000984  0.000669  0.008095     1.471
   0.77876  0.22863  0.08087  1.51625  0.000923  0.000627  0.008371     1.471
   0.79164  0.21580  0.07970  1.52838  0.000863  0.000587  0.008670     1.471
   0.80439  0.20311  0.07839  1.54090  0.000804  0.000547  0.009004     1.470
   0.81698  0.19061  0.07696  1.55380  0.000745  0.000508  0.009381     1.468
   0.82939  0.17830  0.07538  1.56682  0.000687  0.000469  0.009797     1.465
   0.84159  0.16622  0.07368  1.58041  0.000630  0.000431  0.010275     1.462
   0.85354  0.15441  0.07184  1.59395  0.000574  0.000394  0.010791     1.459
   0.86520  0.14292  0.06988  1.60780  0.000521  0.000357  0.011332     1.458
   0.87651  0.13179  0.06781  1.62154  0.000472  0.000322  0.011785     1.464
   0.88743  0.12109  0.06563  1.63484  0.000432  0.000289  0.011829     1.492
   0.89789  0.11088  0.06337  1.64800  0.000412  0.000260  0.010666     1.586
   0.90784  0.10120  0.06105  1.66426  0.000437  0.000235  0.007142     1.863
   0.91724  0.09211  0.05868  1.69877  0.000541  0.000208  0.002850     2.607
   0.92604  0.08363  0.05630  1.73513  0.000632  0.000184  0.000598     3.427
   0.93424  0.07578  0.05393  1.74895  0.000631  0.000176  0.000344     3.584
   0.94184  0.06856  0.05159  1.76431  0.000606  0.000167  0.000299     3.623
   0.94885  0.06194  0.04928  1.78042  0.000569  0.000158  0.000380     3.589
   0.95531  0.05589  0.04702  1.79703  0.000529  0.000150  0.000535     3.526
   0.96125  0.05037  0.04482  1.81405  0.000489  0.000142  0.000757     3.449
   0.96672  0.04534  0.04268  1.83146  0.000450  0.000134  0.001063     3.360
   0.97176  0.04075  0.04059  1.84902  0.000415  0.000127  0.001408     3.281
   0.97641  0.03656  0.03856  1.86670  0.000382  0.000119  0.001817     3.204
   0.98072  0.03273  0.03658  1.88447  0.000351  0.000112  0.002311     3.127
   0.98472  0.02923  0.03465  1.90210  0.000323  0.000106  0.002873     3.056
   0.98845  0.02602  0.03276  1.91938  0.000298  0.000099  0.003479     2.994
   0.99193  0.02307  0.03091  1.93657  0.000273  0.000093  0.004243     2.926
   0.99520  0.02036  0.02909  1.95294  0.000252  0.000088  0.005060     2.868
   0.99826  0.01787  0.02730  1.96846  0.000232  0.000082  0.005960     2.815
   1.00116  0.01558  0.02553  1.98316  0.000212  0.000077  0.007041     2.759
   1.00389  0.01348  0.02378  1.99615  0.000195  0.000072  0.008184     2.712
   1.00648  0.01155  0.02205  2.00775  0.000179  0.000067  0.009638     2.656
   1.00895  0.00979  0.02032  2.01584  0.000165  0.000063  0.010973     2.618
   1.01130  0.00818  0.01860  2.02177  0.000151  0.000059  0.012710     2.569
   1.01355  0.00673  0.01689  2.02304  0.000139  0.000055  0.014482     2.528
   1.01570  0.00542  0.01518  2.01947  0.000127  0.000051  0.016545     2.483
   1.01776  0.00426  0.01347  2.00863  0.000117  0.000048  0.018388     2.452
   1.01975  0.00324  0.01177  1.99139  0.000108  0.000045  0.020645     2.411
   1.02167  0.00237  0.01006  1.96411  0.000100  0.000042  0.022664     2.379
   1.02352  0.00163  0.00836  1.92672  0.000094  0.000040  0.024555     2.349
   1.02532  0.00104  0.00666  1.87821  0.000088  0.000038  0.026077     2.324
   1.02706  0.00058  0.00498  1.81877  0.000083  0.000036  0.027331     2.300
   1.02875  0.00026  0.00332  1.74782  0.000079  0.000035  0.028134     2.277
   1.03040  0.00007  0.00168  1.66622  0.000077  0.000034  0.028076     2.264
   1.03201  0.00000  0.00008  1.57813  0.000075  0.000033  0.027494     2.255
   1.03361  0.00005 -0.00152  1.48344  0.000073  0.000033  0.026537     2.248
   1.03524  0.00023 -0.00315  1.37974  0.000072  0.000032  0.025412     2.236
   1.03692  0.00055 -0.00479  1.26610  0.000071  0.000032  0.023850     2.223
   1.03864  0.00101 -0.00645  1.14525  0.000072  0.000032  0.021415     2.224
   1.04041  0.00162 -0.00811  1.02097  0.000072  0.000033  0.019294     2.208
   1.04223  0.00238 -0.00976  0.89327  0.000074  0.000033  0.016330     2.213
   1.04410  0.00329 -0.01140  0.76914  0.000076  0.000034  0.013778     2.208
   1.04604  0.00435 -0.01302  0.64674  0.000079  0.000036  0.011212     2.204
   1.04805  0.00556 -0.01462  0.53016  0.000083  0.000037  0.008698     2.210
   1.05013  0.00692 -0.01620  0.42149  0.000086  0.000039  0.006609     2.212
   1.05230  0.00843 -0.01776  0.31813  0.000091  0.000041  0.004769     2.205
   1.05456  0.01009 -0.01929  0.22357  0.000097  0.000043  0.003076     2.229
   1.05693  0.01191 -0.02081  0.13558  0.000100  0.000045  0.001832     2.212
   1.05941  0.01389 -0.02230  0.05410  0.000111  0.000050  0.000650     2.230
   1.06202  0.01604 -0.02379 -0.02046  0.000111  0.000050  0.000246     2.230
   1.06477  0.01836 -0.02526 -0.09026  0.000122  0.000054  0.000980     2.240
   1.06769  0.02088 -0.02672 -0.15388  0.000128  0.000057  0.001590     2.237
   1.07078  0.02361 -0.02817 -0.21284  0.000136  0.000061  0.002038     2.251
   1.07407  0.02656 -0.02963 -0.26837  0.000143  0.000064  0.002460     2.247
   1.07758  0.02976 -0.03108 -0.31971  0.000153  0.000067  0.002700     2.265
   1.08134  0.03323 -0.03254 -0.36751  0.000161  0.000071  0.002942     2.263
   1.08539  0.03701 -0.03400 -0.41215  0.000172  0.000076  0.003070     2.274
   1.08976  0.04112 -0.03547 -0.45408  0.000182  0.000080  0.003188     2.277
   1.09448  0.04560 -0.03694 -0.49355  0.000193  0.000084  0.003243     2.285
   1.09960  0.05051 -0.03842 -0.53046  0.000205  0.000089  0.003259     2.293
   1.10518  0.05588 -0.03991 -0.56583  0.000216  0.000094  0.003287     2.294
   1.11125  0.06176 -0.04140 -0.59850  0.000231  0.000100  0.003215     2.309
   1.11786  0.06821 -0.04289 -0.62943  0.000244  0.000106  0.003187     2.311
   1.12507  0.07526 -0.04436 -0.65839  0.000260  0.000112  0.003109     2.320
   1.13290  0.08296 -0.04581 -0.68530  0.000276  0.000119  0.003022     2.327
   1.14139  0.09133 -0.04722 -0.71067  0.000292  0.000125  0.002948     2.332
   1.15052  0.10036 -0.04857 -0.73389  0.000311  0.000133  0.002836     2.342
   1.16029  0.11005 -0.04985 -0.75510  0.000330  0.000140  0.002730     2.349
   1.17066  0.12035 -0.05103 -0.77455  0.000349  0.000148  0.002631     2.355
   1.18158  0.13122 -0.05211 -0.79202  0.000369  0.000156  0.002520     2.364
   1.19298  0.14258 -0.05307 -0.80770  0.000390  0.000165  0.002415     2.372
   1.20481  0.15438 -0.05390 -0.82181  0.000411  0.000173  0.002319     2.378
   1.21700  0.16655 -0.05460 -0.83426  0.000433  0.000181  0.002216     2.386
   1.22950  0.17903 -0.05517 -0.84523  0.000455  0.000190  0.002120     2.395
   1.24226  0.19178 -0.05561 -0.85499  0.000476  0.000198  0.002033     2.401
   1.25524  0.20476 -0.05593 -0.86363  0.000498  0.000207  0.001949     2.408
   1.26840  0.21793 -0.05612 -0.87118  0.000521  0.000215  0.001866     2.416
   1.28174  0.23126 -0.05620 -0.87787  0.000543  0.000224  0.001792     2.423
   1.29521  0.24473 -0.05616 -0.88364  0.000566  0.000233  0.001716     2.432
   1.30881  0.25833 -0.05602 -0.88875  0.000588  0.000241  0.001648     2.439
   1.32252  0.27203 -0.05578 -0.89319  0.000611  0.000250  0.001583     2.446
   1.33633  0.28584 -0.05545 -0.89715  0.000633  0.000258  0.001525     2.452
   1.35023  0.29973 -0.05503 -0.90045  0.000656  0.000267  0.001462     2.461
   1.36421  0.31371 -0.05452 -0.90337  0.000679  0.000275  0.001408     2.468
   1.37827  0.32775 -0.05394 -0.90594  0.000701  0.000283  0.001358     2.474
   1.39239  0.34186 -0.05328 -0.90806  0.000724  0.000292  0.001306     2.482
   1.40659  0.35604 -0.05256 -0.90986  0.000747  0.000300  0.001259     2.490
   1.42084  0.37027 -0.05176 -0.91145  0.000770  0.000308  0.001216     2.496
   1.43514  0.38455 -0.05091 -0.91264  0.000794  0.000317  0.001170     2.505
   1.44950  0.39888 -0.05000 -0.91371  0.000816  0.000325  0.001132     2.511
   1.46391  0.41325 -0.04903 -0.91449  0.000840  0.000333  0.001092     2.519
   1.47836  0.42767 -0.04802 -0.91508  0.000863  0.000342  0.001054     2.526
   1.49286  0.44212 -0.04695 -0.91549  0.000886  0.000350  0.001018     2.534
   1.50739  0.45662 -0.04585 -0.91576  0.000910  0.000358  0.000985     2.541
   1.52196  0.47114 -0.04470 -0.91584  0.000934  0.000366  0.000951     2.549
   1.53657  0.48570 -0.04352 -0.91586  0.000957  0.000374  0.000922     2.555
   1.55121  0.50029 -0.04229 -0.91561  0.000982  0.000383  0.000888     2.565
   1.56587  0.51490 -0.04104 -0.91529  0.001006  0.000391  0.000858     2.573
   1.58057  0.52954 -0.03976 -0.91486  0.001031  0.000399  0.000829     2.582
   1.59529  0.54421 -0.03844 -0.91417  0.001058  0.000408  0.000796     2.594
   1.61004  0.55889 -0.03710 -0.91341  0.001085  0.000416  0.000767     2.605
   1.62481  0.57360 -0.03574 -0.91243  0.001113  0.000425  0.000734     2.619
   1.63960  0.58833 -0.03435 -0.91116  0.001145  0.000434  0.000697     2.637
   1.65442  0.60308 -0.03295 -0.90940  0.001184  0.000444  0.000650     2.666
   1.66925  0.61784 -0.03154 -0.90781  0.001218  0.000454  0.000618     2.685
   1.68408  0.63261 -0.03015 -0.90659  0.001242  0.000462  0.000602     2.689
   1.69892  0.64738 -0.02877 -0.90561  0.001261  0.000470  0.000594     2.686
   1.71376  0.66215 -0.02741 -0.90481  0.001278  0.000477  0.000591     2.679
   1.72858  0.67692 -0.02606 -0.90419  0.001291  0.000484  0.000591     2.669
   1.74340  0.69168 -0.02473 -0.90371  0.001304  0.000490  0.000593     2.658
   1.75822  0.70644 -0.02343 -0.90337  0.001314  0.000497  0.000596     2.646
   1.77302  0.72119 -0.02214 -0.90313  0.001325  0.000503  0.000599     2.635
   1.78783  0.73594 -0.02087 -0.90302  0.001334  0.000509  0.000604     2.623
   1.80262  0.75068 -0.01963 -0.90302  0.001342  0.000514  0.000608     2.611
   1.81742  0.76542 -0.01840 -0.90308  0.001351  0.000519  0.000612     2.600
   1.83221  0.78016 -0.01719 -0.90326  0.001358  0.000524  0.000617     2.589
   1.84699  0.79490 -0.01601 -0.90355  0.001364  0.000529  0.000622     2.577
   1.86177  0.80964 -0.01484 -0.90387  0.001371  0.000534  0.000626     2.567
   1.87654  0.82436 -0.01370 -0.90433  0.001377  0.000539  0.000632     2.556
   1.89130  0.83908 -0.01258 -0.90474  0.001384  0.000543  0.000634     2.548
   1.90603  0.85377 -0.01148 -0.90537  0.001388  0.000547  0.000641     2.537
   1.92073  0.86842 -0.01040 -0.90586  0.001396  0.000552  0.000642     2.531
   1.93535  0.88301 -0.00935 -0.90651  0.001401  0.000555  0.000646     2.522
   1.94986  0.89748 -0.00832 -0.90713  0.001408  0.000559  0.000648     2.516
   1.96418  0.91177 -0.00732 -0.90777  0.001414  0.000563  0.000650     2.509
   1.97821  0.92577 -0.00636 -0.90842  0.001420  0.000567  0.000651     2.504
   1.99181  0.93933 -0.00544 -0.90889  0.001429  0.000571  0.000648     2.503
   2.00479  0.95228 -0.00457 -0.90935  0.001438  0.000575  0.000645     2.502
   2.01695  0.96442 -0.00377 -0.90957  0.001450  0.000579  0.000638     2.505
   2.02813  0.97557 -0.00304 -0.90978  0.001461  0.000583  0.000631     2.508
   2.03822  0.98564 -0.00239 -0.91000  0.001470  0.000586  0.000627     2.509
   2.04720  0.99461 -0.00181 -0.90948  0.001493  0.000591  0.000605     2.527
   2.05261  1.00000 -0.00147 -0.91536  0.001385  0.000576  0.000781     2.403
   2.05261  1.00010 -0.00001  0.91536  0.024330  0.008094  0.000000     3.006
   2.05801  1.00547 -0.00051  0.91135  0.023733  0.008271  0.000000     2.870
   2.06412  1.01157 -0.00097  0.90975  0.022864  0.008341  0.000000     2.741
   2.07105  1.01848 -0.00143  0.90880  0.021895  0.008382  0.000000     2.612
   2.07889  1.02631 -0.00190  0.90839  0.020846  0.008399  0.000000     2.482
   2.08778  1.03519 -0.00236  0.90866  0.019737  0.008388  0.000000     2.353
   2.09785  1.04525 -0.00282  0.90972  0.018587  0.008346  0.000000     2.227
   2.10926  1.05665 -0.00327  0.91165  0.017421  0.008273  0.000000     2.106
   2.12218  1.06957 -0.00370  0.91449  0.016265  0.008170  0.000000     1.991
   2.13682  1.08420 -0.00410  0.91818  0.015146  0.008041  0.000000     1.884
   2.15341  1.10078 -0.00445  0.92261  0.014086  0.007894  0.000000     1.784
   2.17220  1.11957 -0.00473  0.92759  0.013103  0.007737  0.000000     1.694
   2.19348  1.14085 -0.00493  0.93291  0.012207  0.007577  0.000000     1.611
   2.21759  1.16496 -0.00501  0.93836  0.011402  0.007420  0.000000     1.537
   2.24491  1.19228 -0.00493  0.94379  0.010686  0.007272  0.000000     1.469
   2.27585  1.22322 -0.00466  0.94904  0.010054  0.007135  0.000000     1.409
   2.31091  1.25827 -0.00413  0.95405  0.009498  0.007009  0.000000     1.355
   2.35062  1.29798 -0.00330  0.95876  0.009010  0.006895  0.000000     1.307
   2.39561  1.34295 -0.00209  0.96315  0.008585  0.006792  0.000000     1.264
   2.44657  1.39389 -0.00041  0.96722  0.008213  0.006700  0.000000     1.226
   2.50431  1.45158  0.00183  0.97096  0.007890  0.006617  0.000000     1.192
   2.56972  1.51692  0.00476  0.97438  0.007611  0.006544  0.000000     1.163
   2.64381  1.59092  0.00851  0.97751  0.007371  0.006478  0.000000     1.138
   2.72775  1.67473  0.01324  0.98033  0.007166  0.006420  0.000000     1.116
   2.82285  1.76964  0.01912  0.98287  0.006992  0.006368  0.000000     1.098
   2.93057  1.87712  0.02637  0.98513  0.006845  0.006323  0.000000     1.082
   3.05261  1.99883  0.03522  0.98758  0.006712  0.006275  0.000000     1.070
